Energy 3 			# in MeV 
Cross_section 0.011190 		# in barn

Multiplicity proton 0.983000
Differential_cross_section proton 41 	 # Secondary particule & Nbr of rows (Energies) 
# 	 Energy(MeV)	 Int.(b/MeV)	0°	10°	20°	30°	40°	50°	60°	70°	90°	110°	130°	150°	180°	(b/MeV.Sr)
	 0.0000 	 0.0000e+00	0.0e+00	0.0e+00	0.0e+00	0.0e+00	0.0e+00	0.0e+00	0.0e+00	0.0e+00	0.0e+00	0.0e+00	0.0e+00	0.0e+00	0.0e+00
	 0.0750 	 1.0476e-08	9.3e-10	9.2e-10	9.2e-10	9.1e-10	9.0e-10	8.8e-10	8.7e-10	8.4e-10	8.2e-10	8.0e-10	7.9e-10	7.9e-10	7.9e-10
	 0.1500 	 4.1336e-08	3.7e-09	3.6e-09	3.6e-09	3.6e-09	3.5e-09	3.5e-09	3.4e-09	3.3e-09	3.2e-09	3.1e-09	3.1e-09	3.1e-09	3.1e-09
	 0.2250 	 9.1730e-08	8.2e-09	8.1e-09	8.1e-09	8.0e-09	7.9e-09	7.7e-09	7.6e-09	7.4e-09	7.2e-09	7.0e-09	6.9e-09	6.9e-09	6.9e-09
	 0.3000 	 1.6081e-07	1.4e-08	1.4e-08	1.4e-08	1.4e-08	1.4e-08	1.3e-08	1.3e-08	1.3e-08	1.3e-08	1.2e-08	1.2e-08	1.2e-08	1.2e-08
	 0.3750 	 2.4772e-07	2.2e-08	2.2e-08	2.2e-08	2.2e-08	2.1e-08	2.1e-08	2.0e-08	2.0e-08	1.9e-08	1.9e-08	1.9e-08	1.9e-08	1.9e-08
	 0.4500 	 3.5161e-07	3.1e-08	3.1e-08	3.1e-08	3.1e-08	3.0e-08	2.9e-08	2.9e-08	2.8e-08	2.8e-08	2.7e-08	2.6e-08	2.6e-08	2.6e-08
	 0.5250 	 4.7164e-07	4.2e-08	4.2e-08	4.2e-08	4.1e-08	4.0e-08	3.9e-08	3.9e-08	3.8e-08	3.7e-08	3.6e-08	3.5e-08	3.5e-08	3.5e-08
	 0.6000 	 6.0694e-07	5.4e-08	5.3e-08	5.3e-08	5.3e-08	5.2e-08	5.1e-08	5.0e-08	4.9e-08	4.7e-08	4.6e-08	4.6e-08	4.6e-08	4.6e-08
	 0.6750 	 7.5668e-07	6.7e-08	6.7e-08	6.7e-08	6.6e-08	6.5e-08	6.3e-08	6.3e-08	6.1e-08	5.9e-08	5.8e-08	5.7e-08	5.7e-08	5.7e-08
	 0.7500 	 9.2000e-07	8.2e-08	8.1e-08	8.1e-08	8.0e-08	7.9e-08	7.7e-08	7.6e-08	7.4e-08	7.2e-08	7.0e-08	6.9e-08	6.9e-08	6.9e-08
	 0.8250 	 1.1511e-04	1.0e-05	1.0e-05	9.9e-06	9.8e-06	9.6e-06	9.5e-06	9.3e-06	9.2e-06	9.0e-06	8.9e-06	8.9e-06	9.0e-06	9.0e-06
	 0.9000 	 4.3833e-04	3.8e-05	3.8e-05	3.8e-05	3.7e-05	3.7e-05	3.6e-05	3.5e-05	3.5e-05	3.4e-05	3.4e-05	3.4e-05	3.4e-05	3.4e-05
	 0.9750 	 9.4208e-04	8.2e-05	8.2e-05	8.1e-05	8.1e-05	7.9e-05	7.8e-05	7.6e-05	7.5e-05	7.4e-05	7.3e-05	7.3e-05	7.4e-05	7.4e-05
	 1.0500 	 1.5979e-03	1.4e-04	1.4e-04	1.4e-04	1.4e-04	1.3e-04	1.3e-04	1.3e-04	1.3e-04	1.2e-04	1.2e-04	1.2e-04	1.2e-04	1.2e-04
	 1.1250 	 2.3771e-03	2.1e-04	2.1e-04	2.1e-04	2.0e-04	2.0e-04	2.0e-04	1.9e-04	1.9e-04	1.9e-04	1.8e-04	1.8e-04	1.9e-04	1.9e-04
	 1.2000 	 3.2514e-03	2.8e-04	2.8e-04	2.8e-04	2.8e-04	2.7e-04	2.7e-04	2.6e-04	2.6e-04	2.5e-04	2.5e-04	2.5e-04	2.5e-04	2.5e-04
	 1.2750 	 4.1922e-03	3.7e-04	3.7e-04	3.6e-04	3.6e-04	3.5e-04	3.5e-04	3.4e-04	3.4e-04	3.3e-04	3.2e-04	3.2e-04	3.3e-04	3.3e-04
	 1.3500 	 5.1710e-03	4.5e-04	4.5e-04	4.5e-04	4.4e-04	4.3e-04	4.3e-04	4.2e-04	4.1e-04	4.0e-04	4.0e-04	4.0e-04	4.0e-04	4.0e-04
	 1.4250 	 6.1593e-03	5.4e-04	5.4e-04	5.3e-04	5.3e-04	5.2e-04	5.1e-04	5.0e-04	4.9e-04	4.8e-04	4.8e-04	4.8e-04	4.8e-04	4.8e-04
	 1.5000 	 7.1286e-03	6.2e-04	6.2e-04	6.2e-04	6.1e-04	6.0e-04	5.9e-04	5.8e-04	5.7e-04	5.6e-04	5.5e-04	5.5e-04	5.6e-04	5.6e-04
	 1.5750 	 8.0504e-03	7.0e-04	7.0e-04	7.0e-04	6.9e-04	6.7e-04	6.7e-04	6.5e-04	6.4e-04	6.3e-04	6.2e-04	6.2e-04	6.3e-04	6.3e-04
	 1.6500 	 8.8961e-03	7.8e-04	7.8e-04	7.7e-04	7.6e-04	7.4e-04	7.4e-04	7.2e-04	7.1e-04	7.0e-04	6.9e-04	6.9e-04	7.0e-04	7.0e-04
	 1.7250 	 9.6373e-03	8.4e-04	8.4e-04	8.3e-04	8.2e-04	8.1e-04	8.0e-04	7.8e-04	7.7e-04	7.5e-04	7.4e-04	7.4e-04	7.5e-04	7.5e-04
	 1.8000 	 1.0245e-02	8.9e-04	8.9e-04	8.8e-04	8.8e-04	8.6e-04	8.5e-04	8.3e-04	8.2e-04	8.0e-04	7.9e-04	7.9e-04	8.0e-04	8.0e-04
	 1.8750 	 1.0692e-02	9.3e-04	9.3e-04	9.2e-04	9.1e-04	8.9e-04	8.8e-04	8.7e-04	8.6e-04	8.4e-04	8.3e-04	8.3e-04	8.4e-04	8.4e-04
	 1.9500 	 1.0949e-02	9.6e-04	9.6e-04	9.5e-04	9.4e-04	9.2e-04	9.1e-04	8.9e-04	8.8e-04	8.6e-04	8.5e-04	8.5e-04	8.6e-04	8.6e-04
	 2.0250 	 1.0991e-02	9.6e-04	9.6e-04	9.5e-04	9.4e-04	9.2e-04	9.1e-04	8.9e-04	8.8e-04	8.6e-04	8.5e-04	8.5e-04	8.6e-04	8.6e-04
	 2.1000 	 1.0860e-02	9.5e-04	9.5e-04	9.4e-04	9.3e-04	9.1e-04	9.0e-04	8.8e-04	8.7e-04	8.5e-04	8.4e-04	8.4e-04	8.5e-04	8.5e-04
	 2.1750 	 1.0586e-02	9.2e-04	9.2e-04	9.1e-04	9.0e-04	8.9e-04	8.8e-04	8.6e-04	8.5e-04	8.3e-04	8.2e-04	8.2e-04	8.3e-04	8.3e-04
	 2.2500 	 1.0185e-02	8.9e-04	8.9e-04	8.8e-04	8.7e-04	8.5e-04	8.4e-04	8.2e-04	8.1e-04	8.0e-04	7.9e-04	7.9e-04	8.0e-04	8.0e-04
	 2.3250 	 9.6746e-03	8.4e-04	8.4e-04	8.4e-04	8.3e-04	8.1e-04	8.0e-04	7.8e-04	7.7e-04	7.6e-04	7.5e-04	7.5e-04	7.6e-04	7.6e-04
	 2.4000 	 9.0705e-03	7.9e-04	7.9e-04	7.8e-04	7.8e-04	7.6e-04	7.5e-04	7.3e-04	7.3e-04	7.1e-04	7.0e-04	7.0e-04	7.1e-04	7.1e-04
	 2.4750 	 8.3894e-03	7.3e-04	7.3e-04	7.2e-04	7.2e-04	7.0e-04	6.9e-04	6.8e-04	6.7e-04	6.6e-04	6.5e-04	6.5e-04	6.6e-04	6.6e-04
	 2.5500 	 7.6479e-03	6.7e-04	6.7e-04	6.6e-04	6.5e-04	6.4e-04	6.3e-04	6.2e-04	6.1e-04	6.0e-04	5.9e-04	5.9e-04	6.0e-04	6.0e-04
	 2.6250 	 6.8623e-03	6.0e-04	6.0e-04	5.9e-04	5.9e-04	5.7e-04	5.7e-04	5.6e-04	5.5e-04	5.4e-04	5.3e-04	5.3e-04	5.4e-04	5.4e-04
	 2.7000 	 6.0492e-03	5.3e-04	5.3e-04	5.2e-04	5.2e-04	5.1e-04	5.0e-04	4.9e-04	4.8e-04	4.7e-04	4.7e-04	4.7e-04	4.7e-04	4.7e-04
	 2.7750 	 5.2251e-03	4.6e-04	4.6e-04	4.5e-04	4.5e-04	4.4e-04	4.3e-04	4.2e-04	4.2e-04	4.1e-04	4.0e-04	4.0e-04	4.1e-04	4.1e-04
	 2.8500 	 4.4065e-03	3.8e-04	3.8e-04	3.8e-04	3.8e-04	3.7e-04	3.6e-04	3.6e-04	3.5e-04	3.4e-04	3.4e-04	3.4e-04	3.4e-04	3.4e-04
	 2.9250 	 3.6099e-03	3.2e-04	3.2e-04	3.1e-04	3.1e-04	3.0e-04	3.0e-04	2.9e-04	2.9e-04	2.8e-04	2.8e-04	2.8e-04	2.8e-04	2.8e-04
	 3.0000 	 2.8519e-03	2.5e-04	2.5e-04	2.5e-04	2.4e-04	2.4e-04	2.4e-04	2.3e-04	2.3e-04	2.2e-04	2.2e-04	2.2e-04	2.2e-04	2.2e-04

Multiplicity alpha 0.000000
Differential_cross_section alpha 41 	 # Secondary particule & Nbr of rows (Energies) 
# 	 Energy(MeV)	 Int.(b/MeV)	0°	10°	20°	30°	40°	50°	60°	70°	90°	110°	130°	150°	180°	(b/MeV.Sr)
	 0.0000 	 0.0000e+00	0.0e+00	0.0e+00	0.0e+00	0.0e+00	0.0e+00	0.0e+00	0.0e+00	0.0e+00	0.0e+00	0.0e+00	0.0e+00	0.0e+00	0.0e+00
	 0.0750 	 1.4252e-14	1.5e-16	1.5e-16	1.5e-16	1.7e-16	1.7e-16	3.5e-16	5.5e-16	6.3e-16	1.0e-15	1.5e-15	1.9e-15	2.3e-15	2.5e-15
	 0.1500 	 3.0248e-14	6.0e-16	6.0e-16	6.0e-16	6.6e-16	6.7e-16	9.8e-16	1.4e-15	1.5e-15	2.2e-15	3.0e-15	3.8e-15	4.5e-15	4.9e-15
	 0.2250 	 4.7895e-14	1.3e-15	1.3e-15	1.3e-15	1.4e-15	1.5e-15	1.9e-15	2.4e-15	2.5e-15	3.6e-15	4.6e-15	5.7e-15	6.7e-15	7.3e-15
	 0.3000 	 6.7103e-14	2.2e-15	2.2e-15	2.2e-15	2.5e-15	2.5e-15	3.0e-15	3.6e-15	3.8e-15	5.0e-15	6.3e-15	7.7e-15	9.0e-15	9.7e-15
	 0.3750 	 8.7780e-14	3.4e-15	3.4e-15	3.4e-15	3.7e-15	3.7e-15	4.4e-15	5.0e-15	5.2e-15	6.6e-15	8.1e-15	9.7e-15	1.1e-14	1.2e-14
	 0.4500 	 1.0983e-13	4.7e-15	4.7e-15	4.7e-15	5.1e-15	5.2e-15	5.9e-15	6.6e-15	6.7e-15	8.3e-15	9.9e-15	1.2e-14	1.3e-14	1.4e-14
	 0.5250 	 1.3317e-13	6.1e-15	6.1e-15	6.1e-15	6.7e-15	6.7e-15	7.5e-15	8.3e-15	8.4e-15	1.0e-14	1.2e-14	1.4e-14	1.6e-14	1.7e-14
	 0.6000 	 1.5771e-13	7.7e-15	7.7e-15	7.7e-15	8.4e-15	8.4e-15	9.3e-15	1.0e-14	1.0e-14	1.2e-14	1.4e-14	1.6e-14	1.8e-14	1.9e-14
	 0.6750 	 1.8335e-13	9.3e-15	9.3e-15	9.3e-15	1.0e-14	1.0e-14	1.1e-14	1.2e-14	1.2e-14	1.4e-14	1.6e-14	1.8e-14	2.0e-14	2.1e-14
	 0.7500 	 2.1000e-13	1.1e-14	1.1e-14	1.1e-14	1.2e-14	1.2e-14	1.3e-14	1.4e-14	1.4e-14	1.6e-14	1.8e-14	2.0e-14	2.2e-14	2.3e-14
	 0.8250 	 2.4112e-13	1.3e-14	1.3e-14	1.3e-14	1.4e-14	1.4e-14	1.5e-14	1.6e-14	1.6e-14	1.8e-14	2.0e-14	2.2e-14	2.4e-14	2.5e-14
	 0.9000 	 2.7944e-13	1.7e-14	1.7e-14	1.7e-14	1.8e-14	1.8e-14	1.9e-14	2.0e-14	2.0e-14	2.1e-14	2.3e-14	2.5e-14	2.7e-14	2.7e-14
	 0.9750 	 3.2374e-13	2.2e-14	2.2e-14	2.1e-14	2.2e-14	2.2e-14	2.3e-14	2.4e-14	2.3e-14	2.5e-14	2.6e-14	2.8e-14	2.9e-14	3.0e-14
	 1.0500 	 3.7283e-13	2.7e-14	2.7e-14	2.7e-14	2.8e-14	2.7e-14	2.8e-14	2.8e-14	2.8e-14	2.9e-14	3.0e-14	3.1e-14	3.2e-14	3.2e-14
	 1.1250 	 4.2550e-13	3.3e-14	3.3e-14	3.3e-14	3.4e-14	3.3e-14	3.3e-14	3.3e-14	3.2e-14	3.3e-14	3.3e-14	3.4e-14	3.5e-14	3.4e-14
	 1.2000 	 4.8055e-13	4.0e-14	4.0e-14	3.9e-14	4.0e-14	3.9e-14	3.9e-14	3.9e-14	3.7e-14	3.7e-14	3.7e-14	3.7e-14	3.7e-14	3.7e-14
	 1.2750 	 5.3678e-13	4.7e-14	4.7e-14	4.6e-14	4.6e-14	4.5e-14	4.5e-14	4.4e-14	4.3e-14	4.2e-14	4.1e-14	4.0e-14	4.0e-14	3.9e-14
	 1.3500 	 5.9299e-13	5.4e-14	5.4e-14	5.3e-14	5.3e-14	5.2e-14	5.0e-14	5.0e-14	4.8e-14	4.6e-14	4.5e-14	4.3e-14	4.3e-14	4.2e-14
	 1.4250 	 6.4797e-13	6.1e-14	6.1e-14	6.0e-14	6.0e-14	5.8e-14	5.6e-14	5.5e-14	5.3e-14	5.1e-14	4.8e-14	4.6e-14	4.5e-14	4.4e-14
	 1.5000 	 7.0052e-13	6.8e-14	6.8e-14	6.7e-14	6.6e-14	6.4e-14	6.2e-14	6.1e-14	5.8e-14	5.5e-14	5.2e-14	4.9e-14	4.7e-14	4.6e-14
	 1.5750 	 7.4944e-13	7.5e-14	7.5e-14	7.3e-14	7.2e-14	7.0e-14	6.7e-14	6.6e-14	6.3e-14	5.9e-14	5.5e-14	5.1e-14	5.0e-14	4.8e-14
	 1.6500 	 7.9353e-13	8.1e-14	8.1e-14	7.9e-14	7.8e-14	7.5e-14	7.2e-14	7.0e-14	6.7e-14	6.2e-14	5.8e-14	5.4e-14	5.1e-14	4.9e-14
	 1.7250 	 8.3157e-13	8.6e-14	8.6e-14	8.4e-14	8.2e-14	8.0e-14	7.6e-14	7.4e-14	7.0e-14	6.6e-14	6.1e-14	5.6e-14	5.3e-14	5.1e-14
	 1.8000 	 8.6238e-13	9.0e-14	9.0e-14	8.8e-14	8.6e-14	8.3e-14	8.0e-14	7.7e-14	7.3e-14	6.8e-14	6.3e-14	5.7e-14	5.4e-14	5.2e-14
	 1.8750 	 8.8475e-13	9.3e-14	9.3e-14	9.1e-14	8.9e-14	8.6e-14	8.2e-14	7.9e-14	7.6e-14	7.0e-14	6.4e-14	5.8e-14	5.5e-14	5.2e-14
	 1.9500 	 8.9747e-13	9.5e-14	9.5e-14	9.3e-14	9.1e-14	8.8e-14	8.4e-14	8.1e-14	7.7e-14	7.1e-14	6.5e-14	5.9e-14	5.6e-14	5.3e-14
	 2.0250 	 8.9926e-13	9.5e-14	9.5e-14	9.3e-14	9.1e-14	8.8e-14	8.4e-14	8.1e-14	7.7e-14	7.1e-14	6.5e-14	5.9e-14	5.6e-14	5.3e-14
	 2.1000 	 8.8853e-13	9.4e-14	9.4e-14	9.2e-14	9.0e-14	8.7e-14	8.3e-14	8.0e-14	7.6e-14	7.0e-14	6.4e-14	5.8e-14	5.5e-14	5.2e-14
	 2.1750 	 8.6611e-13	9.1e-14	9.1e-14	8.9e-14	8.8e-14	8.5e-14	8.1e-14	7.8e-14	7.4e-14	6.8e-14	6.3e-14	5.7e-14	5.4e-14	5.1e-14
	 2.2500 	 8.3333e-13	8.8e-14	8.8e-14	8.6e-14	8.4e-14	8.1e-14	7.8e-14	7.5e-14	7.1e-14	6.6e-14	6.0e-14	5.5e-14	5.2e-14	4.9e-14
	 2.3250 	 7.9156e-13	8.4e-14	8.4e-14	8.2e-14	8.0e-14	7.7e-14	7.4e-14	7.1e-14	6.8e-14	6.2e-14	5.7e-14	5.2e-14	4.9e-14	4.7e-14
	 2.4000 	 7.4213e-13	7.8e-14	7.8e-14	7.7e-14	7.5e-14	7.3e-14	6.9e-14	6.7e-14	6.3e-14	5.9e-14	5.4e-14	4.9e-14	4.6e-14	4.4e-14
	 2.4750 	 6.8641e-13	7.2e-14	7.2e-14	7.1e-14	6.9e-14	6.7e-14	6.4e-14	6.2e-14	5.9e-14	5.4e-14	5.0e-14	4.5e-14	4.3e-14	4.0e-14
	 2.5500 	 6.2573e-13	6.6e-14	6.6e-14	6.5e-14	6.3e-14	6.1e-14	5.8e-14	5.6e-14	5.4e-14	4.9e-14	4.5e-14	4.1e-14	3.9e-14	3.7e-14
	 2.6250 	 5.6146e-13	5.9e-14	5.9e-14	5.8e-14	5.7e-14	5.5e-14	5.2e-14	5.1e-14	4.8e-14	4.4e-14	4.1e-14	3.7e-14	3.5e-14	3.3e-14
	 2.7000 	 4.9493e-13	5.2e-14	5.2e-14	5.1e-14	5.0e-14	4.8e-14	4.6e-14	4.5e-14	4.2e-14	3.9e-14	3.6e-14	3.2e-14	3.1e-14	2.9e-14
	 2.7750 	 4.2751e-13	4.5e-14	4.5e-14	4.4e-14	4.3e-14	4.2e-14	4.0e-14	3.8e-14	3.7e-14	3.4e-14	3.1e-14	2.8e-14	2.7e-14	2.5e-14
	 2.8500 	 3.6053e-13	3.8e-14	3.8e-14	3.7e-14	3.6e-14	3.5e-14	3.4e-14	3.2e-14	3.1e-14	2.8e-14	2.6e-14	2.4e-14	2.2e-14	2.1e-14
	 2.9250 	 2.9536e-13	3.1e-14	3.1e-14	3.1e-14	3.0e-14	2.9e-14	2.8e-14	2.7e-14	2.5e-14	2.3e-14	2.1e-14	1.9e-14	1.8e-14	1.7e-14
	 3.0000 	 2.3333e-13	2.5e-14	2.5e-14	2.4e-14	2.4e-14	2.3e-14	2.2e-14	2.1e-14	2.0e-14	1.8e-14	1.7e-14	1.5e-14	1.5e-14	1.4e-14

Energy_fraction_recoils 0.028800

#################################################################################################################################################

Energy 4 			# in MeV 
Cross_section 0.083010 		# in barn

Multiplicity proton 0.997300
Differential_cross_section proton 41 	 # Secondary particule & Nbr of rows (Energies) 
# 	 Energy(MeV)	 Int.(b/MeV)	0°	10°	20°	30°	40°	50°	60°	70°	90°	110°	130°	150°	180°	(b/MeV.Sr)
	 0.0000 	 0.0000e+00	0.0e+00	0.0e+00	0.0e+00	0.0e+00	0.0e+00	0.0e+00	0.0e+00	0.0e+00	0.0e+00	0.0e+00	0.0e+00	0.0e+00	0.0e+00
	 0.1000 	 4.5373e-05	2.6e-06	2.6e-06	2.6e-06	2.8e-06	2.9e-06	2.9e-06	3.0e-06	3.2e-06	3.6e-06	4.1e-06	4.4e-06	4.4e-06	3.9e-06
	 0.2000 	 8.9885e-05	5.2e-06	5.2e-06	5.2e-06	5.7e-06	5.8e-06	5.9e-06	5.9e-06	6.4e-06	7.0e-06	8.0e-06	8.6e-06	8.7e-06	7.8e-06
	 0.3000 	 1.3333e-04	7.9e-06	7.9e-06	8.0e-06	8.6e-06	8.7e-06	8.8e-06	8.9e-06	9.6e-06	1.0e-05	1.2e-05	1.3e-05	1.3e-05	1.2e-05
	 0.4000 	 1.7549e-04	1.1e-05	1.1e-05	1.1e-05	1.1e-05	1.2e-05	1.2e-05	1.2e-05	1.3e-05	1.4e-05	1.5e-05	1.7e-05	1.7e-05	1.6e-05
	 0.5000 	 2.1617e-04	1.4e-05	1.4e-05	1.4e-05	1.4e-05	1.5e-05	1.5e-05	1.5e-05	1.6e-05	1.7e-05	1.9e-05	2.0e-05	2.1e-05	2.0e-05
	 0.6000 	 2.5516e-04	1.6e-05	1.6e-05	1.6e-05	1.7e-05	1.8e-05	1.8e-05	1.8e-05	1.9e-05	2.0e-05	2.2e-05	2.3e-05	2.4e-05	2.4e-05
	 0.7000 	 2.9224e-04	1.9e-05	1.9e-05	1.9e-05	2.0e-05	2.0e-05	2.1e-05	2.1e-05	2.2e-05	2.3e-05	2.5e-05	2.6e-05	2.7e-05	2.8e-05
	 0.8000 	 3.2667e-04	2.2e-05	2.2e-05	2.2e-05	2.3e-05	2.3e-05	2.3e-05	2.3e-05	2.4e-05	2.5e-05	2.7e-05	2.8e-05	3.0e-05	3.2e-05
	 0.9000 	 3.5564e-04	2.5e-05	2.5e-05	2.5e-05	2.6e-05	2.6e-05	2.6e-05	2.6e-05	2.7e-05	2.7e-05	2.9e-05	3.0e-05	3.3e-05	3.6e-05
	 1.0000 	 3.7995e-04	2.8e-05	2.8e-05	2.8e-05	2.8e-05	2.8e-05	2.8e-05	2.8e-05	2.9e-05	2.9e-05	3.1e-05	3.1e-05	3.5e-05	3.9e-05
	 1.1000 	 4.0104e-04	3.0e-05	3.0e-05	3.0e-05	3.1e-05	3.0e-05	3.0e-05	3.0e-05	3.0e-05	3.1e-05	3.2e-05	3.2e-05	3.7e-05	4.2e-05
	 1.2000 	 4.2031e-04	3.2e-05	3.2e-05	3.2e-05	3.3e-05	3.2e-05	3.2e-05	3.2e-05	3.2e-05	3.2e-05	3.3e-05	3.3e-05	3.8e-05	4.4e-05
	 1.3000 	 4.3920e-04	3.5e-05	3.5e-05	3.4e-05	3.5e-05	3.4e-05	3.4e-05	3.3e-05	3.4e-05	3.4e-05	3.4e-05	3.4e-05	4.0e-05	4.7e-05
	 1.4000 	 4.5913e-04	3.7e-05	3.7e-05	3.7e-05	3.7e-05	3.7e-05	3.6e-05	3.5e-05	3.6e-05	3.5e-05	3.5e-05	3.5e-05	4.1e-05	5.0e-05
	 1.5000 	 4.8151e-04	4.0e-05	4.0e-05	4.0e-05	4.0e-05	3.9e-05	3.8e-05	3.8e-05	3.8e-05	3.7e-05	3.7e-05	3.6e-05	4.3e-05	5.4e-05
	 1.6000 	 5.0777e-04	4.4e-05	4.4e-05	4.3e-05	4.3e-05	4.2e-05	4.1e-05	4.0e-05	4.0e-05	3.8e-05	3.8e-05	3.7e-05	4.5e-05	5.8e-05
	 1.7000 	 5.3932e-04	4.8e-05	4.8e-05	4.7e-05	4.7e-05	4.6e-05	4.5e-05	4.3e-05	4.3e-05	4.1e-05	4.0e-05	3.8e-05	4.8e-05	6.3e-05
	 1.8000 	 5.7760e-04	5.3e-05	5.3e-05	5.2e-05	5.1e-05	5.0e-05	4.9e-05	4.7e-05	4.6e-05	4.4e-05	4.2e-05	4.0e-05	5.1e-05	6.9e-05
	 1.9000 	 6.2402e-04	5.8e-05	5.8e-05	5.7e-05	5.7e-05	5.5e-05	5.3e-05	5.2e-05	5.0e-05	4.7e-05	4.5e-05	4.2e-05	5.4e-05	7.6e-05
	 2.0000 	 6.8000e-04	6.5e-05	6.5e-05	6.4e-05	6.3e-05	6.1e-05	5.9e-05	5.7e-05	5.5e-05	5.1e-05	4.8e-05	4.5e-05	5.9e-05	8.4e-05
	 2.1000 	 3.0066e-03	2.7e-04	2.7e-04	2.7e-04	2.6e-04	2.6e-04	2.5e-04	2.4e-04	2.4e-04	2.3e-04	2.3e-04	2.2e-04	2.4e-04	2.7e-04
	 2.2000 	 9.2157e-03	8.2e-04	8.1e-04	8.0e-04	7.9e-04	7.8e-04	7.6e-04	7.4e-04	7.3e-04	7.1e-04	7.0e-04	7.0e-04	7.2e-04	7.6e-04
	 2.3000 	 1.8335e-02	1.6e-03	1.6e-03	1.6e-03	1.6e-03	1.5e-03	1.5e-03	1.5e-03	1.5e-03	1.4e-03	1.4e-03	1.4e-03	1.4e-03	1.5e-03
	 2.4000 	 2.9393e-02	2.6e-03	2.6e-03	2.6e-03	2.5e-03	2.5e-03	2.4e-03	2.4e-03	2.3e-03	2.3e-03	2.3e-03	2.3e-03	2.3e-03	2.4e-03
	 2.5000 	 4.1417e-02	3.6e-03	3.6e-03	3.6e-03	3.5e-03	3.5e-03	3.4e-03	3.3e-03	3.3e-03	3.2e-03	3.2e-03	3.2e-03	3.2e-03	3.3e-03
	 2.6000 	 5.3434e-02	4.7e-03	4.6e-03	4.6e-03	4.6e-03	4.5e-03	4.4e-03	4.3e-03	4.2e-03	4.1e-03	4.1e-03	4.1e-03	4.2e-03	4.3e-03
	 2.7000 	 6.4473e-02	5.7e-03	5.6e-03	5.6e-03	5.5e-03	5.4e-03	5.3e-03	5.2e-03	5.1e-03	5.0e-03	5.0e-03	5.0e-03	5.0e-03	5.1e-03
	 2.8000 	 7.3562e-02	6.5e-03	6.4e-03	6.4e-03	6.3e-03	6.2e-03	6.0e-03	5.9e-03	5.8e-03	5.7e-03	5.7e-03	5.7e-03	5.7e-03	5.8e-03
	 2.9000 	 7.9729e-02	7.0e-03	6.9e-03	6.9e-03	6.8e-03	6.7e-03	6.5e-03	6.4e-03	6.3e-03	6.1e-03	6.1e-03	6.1e-03	6.2e-03	6.3e-03
	 3.0000 	 8.2000e-02	7.2e-03	7.1e-03	7.1e-03	7.0e-03	6.9e-03	6.7e-03	6.6e-03	6.5e-03	6.3e-03	6.3e-03	6.3e-03	6.4e-03	6.5e-03
	 3.1000 	 8.0955e-02	7.1e-03	7.0e-03	7.0e-03	6.9e-03	6.8e-03	6.6e-03	6.5e-03	6.4e-03	6.2e-03	6.2e-03	6.2e-03	6.3e-03	6.4e-03
	 3.2000 	 7.8015e-02	6.9e-03	6.8e-03	6.8e-03	6.7e-03	6.6e-03	6.4e-03	6.3e-03	6.2e-03	6.0e-03	6.0e-03	6.0e-03	6.1e-03	6.2e-03
	 3.3000 	 7.3472e-02	6.5e-03	6.4e-03	6.4e-03	6.3e-03	6.2e-03	6.0e-03	5.9e-03	5.8e-03	5.6e-03	5.6e-03	5.6e-03	5.7e-03	5.8e-03
	 3.4000 	 6.7617e-02	5.9e-03	5.9e-03	5.9e-03	5.8e-03	5.7e-03	5.5e-03	5.4e-03	5.4e-03	5.2e-03	5.2e-03	5.2e-03	5.3e-03	5.4e-03
	 3.5000 	 6.0741e-02	5.3e-03	5.3e-03	5.3e-03	5.2e-03	5.1e-03	5.0e-03	4.9e-03	4.8e-03	4.7e-03	4.7e-03	4.7e-03	4.7e-03	4.8e-03
	 3.6000 	 5.3136e-02	4.7e-03	4.6e-03	4.6e-03	4.5e-03	4.5e-03	4.3e-03	4.3e-03	4.2e-03	4.1e-03	4.1e-03	4.1e-03	4.1e-03	4.2e-03
	 3.7000 	 4.5094e-02	4.0e-03	3.9e-03	3.9e-03	3.8e-03	3.8e-03	3.7e-03	3.6e-03	3.6e-03	3.5e-03	3.5e-03	3.5e-03	3.5e-03	3.6e-03
	 3.8000 	 3.6906e-02	3.2e-03	3.2e-03	3.2e-03	3.2e-03	3.1e-03	3.0e-03	3.0e-03	2.9e-03	2.8e-03	2.8e-03	2.8e-03	2.9e-03	2.9e-03
	 3.9000 	 2.8864e-02	2.5e-03	2.5e-03	2.5e-03	2.5e-03	2.4e-03	2.4e-03	2.3e-03	2.3e-03	2.2e-03	2.2e-03	2.2e-03	2.3e-03	2.3e-03
	 4.0000 	 2.1259e-02	1.9e-03	1.8e-03	1.8e-03	1.8e-03	1.8e-03	1.7e-03	1.7e-03	1.7e-03	1.6e-03	1.6e-03	1.6e-03	1.7e-03	1.7e-03

Multiplicity alpha 0.000000
Differential_cross_section alpha 41 	 # Secondary particule & Nbr of rows (Energies) 
# 	 Energy(MeV)	 Int.(b/MeV)	0°	10°	20°	30°	40°	50°	60°	70°	90°	110°	130°	150°	180°	(b/MeV.Sr)
	 0.0000 	 0.0000e+00	0.0e+00	0.0e+00	0.0e+00	0.0e+00	0.0e+00	0.0e+00	0.0e+00	0.0e+00	0.0e+00	0.0e+00	0.0e+00	0.0e+00	0.0e+00
	 0.1000 	 1.9144e-14	1.2e-15	1.2e-15	1.3e-15	1.3e-15	1.4e-15	1.4e-15	1.5e-15	1.5e-15	1.6e-15	1.6e-15	1.6e-15	1.6e-15	1.5e-15
	 0.2000 	 7.5188e-14	4.8e-15	4.9e-15	5.0e-15	5.1e-15	5.4e-15	5.6e-15	5.9e-15	6.0e-15	6.3e-15	6.3e-15	6.3e-15	6.1e-15	5.9e-15
	 0.3000 	 1.6605e-13	1.1e-14	1.1e-14	1.1e-14	1.1e-14	1.2e-14	1.2e-14	1.3e-14	1.3e-14	1.4e-14	1.4e-14	1.4e-14	1.3e-14	1.3e-14
	 0.4000 	 2.8965e-13	1.9e-14	1.9e-14	1.9e-14	2.0e-14	2.1e-14	2.2e-14	2.3e-14	2.3e-14	2.4e-14	2.4e-14	2.4e-14	2.3e-14	2.3e-14
	 0.5000 	 4.4391e-13	2.9e-14	2.9e-14	2.9e-14	3.0e-14	3.2e-14	3.3e-14	3.5e-14	3.6e-14	3.7e-14	3.7e-14	3.7e-14	3.6e-14	3.5e-14
	 0.6000 	 6.2674e-13	4.0e-14	4.1e-14	4.2e-14	4.3e-14	4.5e-14	4.7e-14	4.9e-14	5.0e-14	5.2e-14	5.3e-14	5.2e-14	5.1e-14	4.9e-14
	 0.7000 	 8.3606e-13	5.4e-14	5.5e-14	5.5e-14	5.7e-14	6.0e-14	6.2e-14	6.5e-14	6.7e-14	7.0e-14	7.0e-14	7.0e-14	6.8e-14	6.6e-14
	 0.8000 	 3.2839e-11	9.1e-13	9.1e-13	9.6e-13	1.0e-12	1.1e-12	1.3e-12	1.4e-12	1.6e-12	2.3e-12	3.3e-12	5.4e-12	6.6e-12	7.1e-12
	 0.9000 	 2.7662e-10	7.5e-12	7.5e-12	7.9e-12	8.7e-12	9.5e-12	1.1e-11	1.2e-11	1.4e-11	1.9e-11	2.8e-11	4.5e-11	5.6e-11	6.0e-11
	 1.0000 	 7.3676e-10	2.0e-11	2.0e-11	2.2e-11	2.4e-11	2.6e-11	2.9e-11	3.2e-11	3.7e-11	5.1e-11	7.4e-11	1.2e-10	1.5e-10	1.6e-10
	 1.1000 	 1.3849e-09	3.9e-11	3.9e-11	4.1e-11	4.5e-11	4.9e-11	5.5e-11	6.2e-11	6.9e-11	9.6e-11	1.4e-10	2.2e-10	2.7e-10	2.9e-10
	 1.2000 	 2.1927e-09	6.4e-11	6.4e-11	6.7e-11	7.3e-11	8.0e-11	8.8e-11	9.9e-11	1.1e-10	1.5e-10	2.2e-10	3.4e-10	4.1e-10	4.4e-10
	 1.3000 	 3.1318e-09	9.4e-11	9.4e-11	9.9e-11	1.1e-10	1.2e-10	1.3e-10	1.4e-10	1.6e-10	2.2e-10	3.1e-10	4.7e-10	5.7e-10	6.2e-10
	 1.4000 	 4.1739e-09	1.3e-10	1.3e-10	1.4e-10	1.5e-10	1.6e-10	1.7e-10	2.0e-10	2.2e-10	2.9e-10	4.1e-10	6.1e-10	7.4e-10	8.0e-10
	 1.5000 	 5.2905e-09	1.7e-10	1.7e-10	1.8e-10	1.9e-10	2.1e-10	2.3e-10	2.5e-10	2.8e-10	3.7e-10	5.1e-10	7.5e-10	9.1e-10	9.7e-10
	 1.6000 	 6.4534e-09	2.1e-10	2.1e-10	2.2e-10	2.4e-10	2.6e-10	2.8e-10	3.2e-10	3.5e-10	4.5e-10	6.2e-10	8.8e-10	1.1e-09	1.1e-09
	 1.7000 	 7.6341e-09	2.6e-10	2.6e-10	2.7e-10	3.0e-10	3.2e-10	3.5e-10	3.8e-10	4.2e-10	5.4e-10	7.2e-10	1.0e-09	1.2e-09	1.3e-09
	 1.8000 	 8.8044e-09	3.1e-10	3.1e-10	3.3e-10	3.5e-10	3.8e-10	4.1e-10	4.5e-10	5.0e-10	6.3e-10	8.2e-10	1.1e-09	1.3e-09	1.4e-09
	 1.9000 	 9.9358e-09	3.7e-10	3.7e-10	3.9e-10	4.2e-10	4.4e-10	4.8e-10	5.3e-10	5.7e-10	7.1e-10	9.0e-10	1.2e-09	1.4e-09	1.5e-09
	 2.0000 	 1.1000e-08	4.3e-10	4.3e-10	4.5e-10	4.8e-10	5.1e-10	5.5e-10	6.0e-10	6.5e-10	7.9e-10	9.8e-10	1.2e-09	1.4e-09	1.5e-09
	 2.1000 	 1.2163e-08	5.4e-10	5.4e-10	5.6e-10	5.9e-10	6.2e-10	6.6e-10	7.1e-10	7.5e-10	8.8e-10	1.1e-09	1.2e-09	1.4e-09	1.5e-09
	 2.2000 	 1.3555e-08	7.3e-10	7.3e-10	7.5e-10	7.7e-10	7.9e-10	8.2e-10	8.6e-10	9.0e-10	1.0e-09	1.1e-09	1.2e-09	1.4e-09	1.5e-09
	 2.3000 	 1.5093e-08	9.9e-10	9.9e-10	1.0e-09	1.0e-09	1.0e-09	1.0e-09	1.1e-09	1.1e-09	1.1e-09	1.2e-09	1.2e-09	1.4e-09	1.4e-09
	 2.4000 	 1.6694e-08	1.3e-09	1.3e-09	1.3e-09	1.3e-09	1.3e-09	1.3e-09	1.3e-09	1.3e-09	1.3e-09	1.3e-09	1.3e-09	1.3e-09	1.4e-09
	 2.5000 	 1.8276e-08	1.6e-09	1.6e-09	1.6e-09	1.6e-09	1.5e-09	1.5e-09	1.5e-09	1.5e-09	1.4e-09	1.4e-09	1.3e-09	1.3e-09	1.3e-09
